0
366
351
344
340
334
330
337
330
332
340
342
341
340
325
306
300
308
314
326
331
328
349
398
463
503
503
460
399
351
333
336
341
342
340
336
331
321
319
323
323
321
330
325
328
335
346
348
345
345
344
336
329
324
318
318
323
336
343
336
340
334
325
330
338
339
345
349
348
346
348
350
361
362
358
359
346
341
338
338
354
357
353
345
331
325
329
333
321
314
315
310
307
308
295
302
317
318
320
313
307
307
308
313
311
309
319
321
320
319
310
304
314
324
323
312
300
299
307
313
318
316
317
316
309
297
298
301
310
320
319
328
329
338
335
326
328
328
325
329
328
316
306
308
311
320
320
312
297
282
280
281
284
287
295
301
297
291
287
279
267
276
287
289
272
263
251
242
281
345
413
458
462
432
380
316
282
303
323
317
310
309
304
301
310
314
305
304
306
308
308
310
303
295
295
299
297
303
314
327
332
325
314
308
326
340
340
340
334
321
312
321
339
347
347
355
357
346
340
339
345
348
349
345
351
352
342
332
336
348
351
349
328
313
310
316
316
321
317
319
317
308
303
285
303
319
326
326
321
308
312
321
319
325
327
320
312
324
339
342
328
315
314
325
335
339
334
324
324
327
330
322
320
318
320
327
342
353
352
338
332
342
342
344
348
344
335
331
326
324
326
330
321
312
308
299
296
307
319
318
316
319
317
306
307
307
298
297
286
270
278
303
339
405
458
477
461
403
349
318
310
305
289
291
304
312
307
305
302
291
285
279
271
277
285
290
298
293
281
270
282
294
291
296
306
298
292
291
293
303
309
307
305
303
312
320
312
306
310
316
318
309
311
330
335
330
333
341
348
342
330
321
316
318
325
321
305
300
308
305
302
301
304
309
311
297
294
298
310
311
305
302
311
322
327
320
326
324
311
309
316
325
336
327
317
323
334
333
326
317
312
325
331
334
329
334
333
326
328
336
345
341
349
353
346
344
339
345
353
349
344
337
340
340
343
341
335
328
324
321
319
326
327
331
327
329
336
328
323
328
332
329
316
298
285
299
319
343
407
475
500
477
426
395
368
355
355
352
342
337
332
326
328
331
322
307
324
336
347
342
335
347
357
356
353
351
348
343
346
349
350
353
353
353
358
357
350
346
346
360
366
365
365
371
375
374
383
387
389
390
391
384
374
375
379
374
363
359
354
345
343
351
351
340
339
338
339
339
335
332
331
334
341
342
340
341
338
339
335
338
348
342
331
331
331
341
345
341
340
339
338
329
324
326
332
343
357
356
352
341
338
343
343
340
338
339
349
354
355
348
340
343
340
342
349
346
315
320
342
359
360
348
330
324
325
319
312
316
328
333
327
320
306
300
319
322
323
318
309
294
277
281
305
341
400
456
487
482
434
372
329
320
320
310
291
302
319
325
321
312
310
315
323
330
329
322
322
325
321
315
320
329
325
321
321
331
331
321
317
324
326
333
344
359
360
350
352
362
368
373
369
374
379
385
383
378
372
370
366
376
374
371
372
369
369
361
353
348
340
337
334
332
322
327
337
339
338
329
324
336
345
342
339
340
337
336
332
337
338
336
335
329
328
332
321
312
334
342
343
338
335
335
337
341
349
340
338
342
344
337
334
352
362
353
343
342
348
346
343
341
336
332
328
338
337
324
315
303
311
323
331
326
313
311
309
308
318
325
321
312
303
286
277
277
295
328
380
434
470
471
440
402
358
323
314
323
328
317
317
311
300
297
300
302
300
306
306
309
310
300
299
305
311
320
315
303
299
302
320
335
318
308
320
334
335
323
317
320
324
331
333
327
322
331
349
358
350
337
345
353
359
358
355
349
341
332
329
328
324
316
317
316
311
301
296
313
328
333
327
320
317
314
314
320
321
316
308
300
316
326
327
321
312
320
318
312
322
326
322
319
318
323
330
331
330
333
324
328
324
319
324
336
340
337
343
346
341
334
334
336
332
327
329
330
329
329
316
308
309
313
313
317
320
316
309
315
311
318
316
307
293
284
279
297
336
392
451
487
496
463
401
342
314
325
337
338
336
324
322
321
321
324
326
329
334
330
325
320
335
341
336
333
331
337
336
337
341
338
335
337
338
325
336
357
363
365
358
341
338
347
363
376
369
366
364
363
376
386
382
379
378
364
350
341
348
358
361
348
342
338
333
331
343
347
347
340
334
334
328
320
325
331
336
338
334
327
333
326
321
328
337
333
330
333
337
338
336
329
333
345
356
351
339
330
329
324
326
339
338
335
340
348
347
337
336
340
345
350
355
360
348
336
339
342
343
338
326
325
319
322
327
316
317
325
327
323
321
310
318
323
328
325
308
286
277
297
323
348
387
440
475
464
439
399
353
327
328
325
312
314
329
324
313
316
315
316
317
321
331
329
320
316
325
323
319
323
321
324
322
315
310
317
328
332
330
321
313
329
346
353
355
349
337
338
352
362
359
351
350
351
356
356
351
345
336
335
341
341
346
343
331
337
334
321
303
310
325
325
315
298
290
296
308
300
295
296
297
295
294
290
296
308
308
309
304
294
294
303
300
307
301
299
301
304
298
287
282
291
298
297
294
288
279
275
283
297
307
316
320
310
311
308
303
296
293
313
322
313
305
298
299
293
296
289
291
296
298
294
292
291
284
290
304
311
310
302
299
304
302
295
276
263
261
267
285
312
361
432
463
454
413
363
330
318
320
324
319
298
296
318
327
319
311
305
302
307
306
308
314
326
328
321
322
323
327
325
327
333
336
329
328
326
328
340
354
356
352
353
351
346
344
352
352
353
362
364
370
380
371
360
356
358
366
372
376
372
356
353
358
355
345
344
340
338
331
327
325
312
305
310
322
340
352
350
339
326
327
346
353
351
343
340
344
348
352
349
345
342
337
321
326
339
343
353
351
341
339
339
338
346
354
349
338
322
320
329
354
353
357
360
356
355
352
351
354
353
352
347
348
351
345
339
338
343
336
326
319
320
314
335
342
340
334
320
317
314
318
320
317
296
288
284
291
319
359
424
479
501
483
426
359
322
318
328
334
327
323
312
309
316
318
310
307
306
303
304
314
330
335
321
316
323
328
324
320
321
332
334
325
313
319
326
328
331
341
338
335
330
324
327
344
358
358
349
355
359
360
355
345
348
359
364
362
343
330
334
332
336
334
326
317
315
316
316
315
309
306
307
303
310
314
319
319
318
314
314
313
313
311
312
313
313
311
311
308
306
300
302
319
333
332
326
320
317
314
316
314
309
316
325
325
316
323
326
329
324
333
343
342
343
349
347
348
341
333
336
337
333
329
316
312
316
312
313
321
312
304
300
310
328
338
329
318
314
312
304
292
281
285
304
333
387
446
472
470
444
388
335
316
322
330
324
317
310
316
320
324
323
316
312
307
308
314
323
322
314
307
313
323
333
338
335
323
319
324
333
336
336
327
327
329
328
333
333
338
350
360
362
353
347
351
360
359
358
358
355
354
352
351
350
349
344
342
339
340
329
311
312
318
324
328
321
315
312
311
310
313
312
316
322
315
320
328
326
325
323
327
327
324
323
323
323
325
322
327
328
333
330
324
320
331
338
342
336
336
334
330
328
321
334
349
346
355
352
343
337
346
353
352
340
335
343
349
337
329
329
336
332
320
317
322
323
313
313
318
319
327
323
319
318
316
305
291
281
283
309
342
401
448
464
465
442
391
352
333
329
332
335
333
330
329
328
324
320
320
321
322
314
317
331
344
337
324
325
339
345
344
340
335
341
342
335
334
339
336
335
337
342
347
339
343
352
355
352
345
350
367
369
368
368
374
370
365
367
362
346
345
333
331
340
353
348
336
320
311
313
315
320
325
328
324
323
323
309
312
323
327
325
319
317
317
321
325
329
327
326
318
314
313
323
332
333
329
322
323
326
325
316
318
323
327
316
303
308
319
317
315
325
338
342
336
337
341
341
349
346
338
339
348
352
347
345
344
340
338
336
336
331
335
334
318
313
326
331
337
336
330
322
326
329
331
321
307
300
299
301
325
375
430
465
473
450
400
351
323
317
332
340
337
330
340
346
336
328
327
331
330
327
324
321
319
324
326
338
348
345
341
339
334
333
343
347
345
339
335
345
343
339
339
343
350
361
352
351
352
358
362
367
367
359
354
362
366
360
356
360
363
363
354
338
330
329
341
346
342
335
325
314
320
330
328
330
332
325
322
320
324
326
336
333
331
334
338
342
341
345
342
334
333
330
333
339
333
324
320
326
333
343
336
337
349
350
334
328
331
339
346
341
331
335
345
339
347
354
351
354
353
346
335
337
347
350
341
344
352
344
329
318
308
321
341
338
333
330
321
320
322
323
316
325
338
338
329
315
302
291
286
296
343
399
456
480
477
463
417
365
327
325
336
342
335
331
321
319
322
314
310
332
334
324
326
333
336
331
324
327
325
330
326
327
321
327
331
342
342
337
344
345
337
335
338
348
352
344
344
351
366
370
365
363
361
357
352
337
341
349
366
372
366
355
340
338
338
330
331
319
317
320
315
312
319
315
311
311
312
301
294
301
309
309
310
314
327
329
323
310
304
312
316
312
307
311
315
318
314
308
306
311
315
317
315
312
309
314
317
309
311
314
317
326
333
339
340
333
317
311
321
342
354
344
329
316
322
329
329
324
320
316
314
303
297
300
306
313
301
305
310
309
295
293
297
293
286
292
288
280
285
317
367
434
483
487
447
381
328
317
315
319
321
308
295
298
306
311
319
326
314
308
311
309
319
324
325
329
323
320
318
324
320
320
323
323
333
331
328
340
343
336
338
344
344
346
347
348
346
344
351
357
357
361
359
355
350
344
343
342
341
349
350
348
342
324
320
324
321
316
306
305
312
320
313
309
311
311
310
308
310
306
309
303
320
322
312
300
305
317
316
310
311
305
306
315
320
322
313
311
321
321
322
320
316
309
313
319
313
310
304
301
309
317
324
316
301
309
332
342
339
336
336
335
340
336
324
325
330
330
325
313
309
311
313
320
316
306
304
303
307
320
324
320
309
303
298
292
278
282
281
305
352
415
459
466
441
387
328
298
303
319
315
307
313
314
305
302
303
298
294
295
295
305
310
299
290
290
287
296
305
309
304
291
284
280
276
265
257
255
232
206
197
186
176
165
154
151
157
154
150
147
147
148
155
172
181
174
170
182
185
178
170
162
159
159
153
153
153
147
147
147
161
173
173
182
189
188
195
201
201
207
201
199
209
216
211
203
194
189
194
197
195
198
206
207
223
232
227
232
232
227
227
237
225
218
226
236
234
223
226
237
246
241
233
247
259
266
272
286
291
284
282
287
291
299
301
309
307
306
305
294
285
289
298
304
299
293
298
311
313
304
301
299
304
294
290
302
308
303
294
276
273
286
310
350
407
453
465
445
409
365
332
324
334
336
322
318
318
322
332
340
335
323
327
336
337
331
325
332
350
353
339
332
343
351
354
348
345
348
351
356
353
360
360
365
367
367
359
353
369
387
386
389
389
390
386
376
380
391
397
393
386
389
386
383
381
371
360
363
365
366
362
361
359
350
345
358
366
363
360
351
343
339
360
382
384
371
370
372
368
361
363
369
361
364
366
366
367
374
381
367
356
378
393
379
368
369
367
364
362
364
367
363
359
363
374
385
392
386
368
366
381
392
397
394
394
387
383
379
382
384
385
383
383
388
386
385
377
355
354
366
364
369
374
370
366
363
364
365
368
369
365
356
353
346
329
323
342
362
404
469
515
531
514
458
400
372
365
362
367
365
360
367
369
366
350
340
339
348
357
360
358
349
336
334
344
360
369
366
358
366
365
355
352
352
367
374
370
365
360
360
366
353
353
367
377
377
376
384
390
374
367
378
384
388
392
388
373
362
352
351
354
359
355
344
333
325
328
332
326
327
332
339
344
338
329
314
321
341
346
337
328
320
327
329
328
321
314
310
311
320
317
309
314
313
327
329
327
311
313
322
323
321
319
322
319
311
312
313
314
317
311
312
325
342
337
337
340
333
331
332
336
350
347
343
334
329
326
320
318
314
321
333
327
320
318
312
315
325
329
329
317
307
307
306
304
289
287
308
341
388
451
492
484
448
393
347
329
323
317
315
327
334
320
323
315
321
326
331
333
323
304
308
323
330
327
327
329
332
338
332
323
331
338
339
334
327
330
339
356
353
346
350
352
350
345
345
355
362
374
372
369
366
365
365
369
374
371
364
355
346
339
349
341
328
331
336
339
338
335
333
327
331
333
330
328
325
332
330
325
323
324
323
324
333
342
340
325
321
329
332
338
348
350
340
335
332
337
339
348
344
335
330
328
325
319
329
339
342
337
333
336
340
350
361
367
355
352
352
348
348
349
356
349
343
346
346
344
337
327
322
316
322
329
334
335
330
331
329
322
319
322
332
336
325
305
294
291
295
326
383
440
481
484
451
389
348
328
326
332
330
336
336
326
324
324
317
319
320
321
329
327
318
307
309
323
335
349
349
342
332
331
333
335
342
347
344
342
339
341
337
336
344
353
369
371
355
344
346
359
368
374
370
366
372
380
369
370
369
359
351
347
342
344
348
346
336
322
306
301
316
336
350
356
347
338
334
327
326
332
335
335
331
323
325
320
320
327
332
340
340
335
332
331
332
335
340
339
333
326
325
325
327
331
332
339
343
341
333
327
333
332
326
328
333
346
352
354
346
345
357
354
347
349
353
357
357
353
342
333
327
320
315
314
309
314
315
309
316
322
320
320
319
330
336
331
316
299
293
297
323
368
433
475
477
450
399
357
334
330
337
343
326
314
311
316
334
344
335
335
332
333
331
327
330
335
333
335
335
339
340
334
330
339
348
349
341
336
337
339
337
347
354
352
359
368
365
371
368
363
359
363
372
373
370
370
377
366
364
370
372
368
357
351
349
332
329
346
349
343
329
335
337
332
327
324
330
339
335
328
325
336
346
342
344
340
341
337
335
333
344
339
323
314
333
353
351
342
344
333
327
342
354
345
345
343
326
328
334
335
342
345
338
339
342
346
350
351
345
351
355
352
343
337
339
336
331
340
339
335
328
321
322
325
322
315
307
311
305
317
332
327
310
303
295
282
278
281
297
332
389
466
505
490
432
375
328
307
314
319
310
298
311
315
311
310
311
304
304
309
315
307
289
301
323
327
324
316
316
314
317
325
327
330
319
311
306
311
323
322
331
339
343
334
332
329
328
342
352
350
338
341
347
358
360
346
347
350
348
339
337
345
337
333
327
315
301
307
318
326
321
312
304
293
303
317
317
325
321
319
314
310
325
332
331
324
315
316
316
319
316
309
311
313
314
324
324
317
303
299
305
319
325
325
311
314
322
323
329
334
331
321
318
323
334
339
334
327
322
319
311
308
306
306
310
312
303
297
293
285
289
295
311
312
306
308
301
288
284
276
263
264
284
309
357
425
461
460
433
382
329
297
294
302
304
302
291
284
283
293
301
296
294
290
295
301
294
290
285
287
291
296
310
311
309
307
299
302
306
305
304
306
314
319
319
307
312
335
343
337
337
333
334
339
350
356
354
350
340
328
338
355
356
340
329
329
329
333
331
325
308
300
307
311
302
308
317
320
312
309
305
299
303
308
309
314
311
314
315
310
314
313
308
315
327
327
323
323
322
322
314
307
311
320
318
320
322
319
321
330
334
329
324
316
325
332
340
351
359
354
346
340
340
343
338
339
334
327
329
331
333
330
331
322
316
309
304
308
318
318
323
327
322
319
313
304
296
288
282
297
336
389
439
468
470
445
392
355
333
328
323
317
317
319
329
330
327
312
312
321
322
322
319
320
325
328
324
328
326
331
338
328
320
323
332
342
342
336
330
324
329
345
348
349
355
354
352
355
355
361
368
371
368
366
363
370
370
366
367
365
352
353
362
358
346
337
335
338
334
326
326
331
324
327
334
336
338
335
328
324
325
324
327
329
322
320
328
330
317
319
318
318
325
338
338
324
314
318
333
334
330
326
321
317
322
327
332
330
325
318
319
325
322
324
319
321
336
339
345
346
335
335
336
332
337
340
334
324
317
338
348
338
334
319
313
317
320
322
321
318
317
321
312
308
306
313
317
319
315
303
285
267
267
282
317
376
444
483
481
435
372
323
304
304
309
311
305
303
296
294
303
311
324
323
299
303
318
325
329
326
317
306
310
316
309
304
309
319
324
314
304
311
322
335
345
335
327
328
339
347
343
339
339
338
341
348
351
341
338
335
328
342
359
362
340
327
322
325
331
328
322
310
310
306
303
307
310
314
318
311
303
301
302
295
309
316
313
314
320
322
322
321
326
329
328
318
315
316
322
328
325
325
327
308
301
315
331
327
321
310
315
326
335
332
329
326
321
312
306
326
336
341
334
339
345
344
340
338
336
338
331
332
333
330
330
328
320
298
314
325
313
311
319
323
323
318
314
313
318
318
311
300
287
280
276
281
312
353
403
455
481
475
427
369
324
320
331
327
314
311
318
320
320
314
299
301
309
307
312
311
307
307
300
299
303
323
334
328
322
320
321
321
312
318
332
329
326
321
320
327
327
327
333
339
346
349
345
341
354
362
352
348
348
348
348
335
323
334
350
342
323
320
323
313
302
300
301
311
319
313
300
297
290
284
305
319
320
320
308
294
293
301
315
320
308
300
306
316
310
311
316
316
314
310
309
304
299
300
300
294
308
331
328
310
301
305
316
324
315
308
311
316
325
336
341
330
320
322
329
335
330
328
333
328
319
317
302
309
320
317
316
310
309
313
311
307
299
300
308
313
311
310
293
276
279
287
304
339
399
462
499
489
449
393
341
311
312
315
325
324
320
319
306
304
313
319
312
316
319
323
326
313
314
323
323
323
328
330
329
322
318
320
326
325
324
328
335
329
324
330
340
350
363
367
362
356
350
344
348
352
360
367
364
358
358
345
354
362
355
347
341
331
326
331
331
330
327
328
330
327
318
309
306
314
338
341
328
315
315
313
314
323
324
332
337
334
332
324
318
315
326
339
346
333
327
336
336
334
344
337
328
330
329
333
342
345
350
348
344
339
334
340
352
364
360
338
334
344
343
335
328
326
318
317
320
330
323
315
307
298
297
311
330
333
330
323
303
290
284
278
286
336
403
465
493
489
444
375
325
314
329
348
345
341
331
327
321
314
315
318
326
327
319
317
314
313
300
315
329
336
338
339
324
322
339
342
338
336
339
338
339
338
346
347
346
344
346
348
343
327
343
363
376
371
373
373
364
355
371
371
360
350
344
345
348
341
338
326
311
305
312
329
335
332
329
325
324
324
313
307
315
327
330
329
320
308
302
318
329
326
325
330
342
341
331
326
322
317
316
319
320
316
340
345
334
330
315
308
319
331
329
329
332
327
323
317
318
330
346
343
338
333
332
335
328
331
342
346
346
341
330
326
326
329
335
336
333
327
319
305
302
312
322
327
324
321
315
313
311
303
305
303
293
289
306
342
386
440
474
474
442
391
340
323
329
324
323
323
321
315
312
315
311
324
330
331
324
312
319
330
332
328
328
326
331
336
328
319
317
317
330
346
353
347
345
352
347
328
331
349
357
354
359
364
364
370
366
357
353
351
360
368
369
372
366
357
354
348
339
341
345
337
328
330
330
322
314
318
321
325
328
330
328
324
322
317
327
329
323
327
320
318
320
330
332
330
329
326
317
303
317
322
325
331
313
308
319
331
328
326
325
312
310
321
324
326
327
321
315
333
344
341
329
320
327
330
329
330
335
337
345
342
325
315
327
335
329
318
315
313
312
310
313
303
294
303
309
316
323
311
315
320
309
286
279
286
310
346
406
465
487
475
437
377
332
320
326
324
315
310
315
315
317
322
317
313
310
310
316
319
327
322
303
303
325
332
332
328
323
317
311
321
330
333
336
341
340
339
333
329
331
335
342
350
348
357
353
345
351
356
350
346
357
369
366
360
347
333
335
340
342
329
328
322
324
326
318
306
302
302
312
329
332
320
303
295
299
317
325
326
327
327
309
300
317
323
322
323
322
322
318
308
314
322
324
325
323
313
312
310
307
309
315
320
326
325
321
317
324
333
333
332
330
333
341
346
338
330
332
334
332
329
318
312
323
328
323
320
318
323
319
306
300
310
318
320
315
316
311
296
285
272
272
284
329
403
468
502
494
447
389
349
326
317
314
308
306
316
315
308
296
298
324
326
311
309
318
317
315
320
324
322
318
313
310
308
305
315
318
326
334
343
336
322
314
330
342
345
342
341
341
337
335
334
336
350
359
357
354
359
365
362
359
351
341
334
336
345
337
327
317
317
322
320
322
320
310
315
320
311
324
333
333
324
317
311
316
317
324
335
336
329
325
328
322
318
328
341
334
332
337
335
334
336
328
327
330
327
329
336
338
343
343
344
344
332
328
334
342
343
348
359
358
343
333
335
324
327
345
345
334
335
330
328
327
321
313
310
309
316
332
327
319
307
314
315
305
290
285
297
322
369
432
480
487
466
413
347
317
318
321
321
310
309
324
325
326
327
319
311
312
320
326
324
317
318
316
319
323
327
322
321
319
315
313
329
329
335
337
334
329
329
335
344
359
365
367
357
347
349
349
350
348
359
365
371
374
376
362
340
332
344
362
351
333
340
330
321
312
314
328
329
322
320
324
319
310
309
323
331
327
321
320
319
319
307
316
333
333
329
329
326
328
324
327
328
323
315
310
314
325
333
333
322
317
322
329
328
313
310
329
334
333
336
340
339
335
332
337
337
334
344
352
352
347
340
334
329
333
331
338
336
327
315
318
322
316
318
329
326
318
312
319
326
307
305
309
306
298
311
335
370
426
463
477
465
419
358
327
325
336
337
318
311
321
329
332
334
327
334
338
329
316
316
328
340
347
342
329
329
340
334
325
336
342
345
348
345
333
317
316
349
361
362
363
354
348
351
350
361
371
364
361
365
366
357
351
354
366
373
368
347
328
334
352
345
332
327
324
326
320
317
320
321
323
323
315
316
317
321
315
326
328
324
325
320
323
328
325
332
332
331
324
325
336
340
326
314
322
328
328
330
322
319
316
318
331
330
323
327
338
344
337
334
330
336
343
341
328
336
356
353
339
340
343
334
323
317
318
327
336
333
326
320
308
303
309
316
324
320
319
316
313
309
307
299
283
277
302
340
398
464
500
494
456
396
344
318
316
322
326
320
319
324
314
310
315
316
309
309
309
308
318
322
327
321
316
318
316
319
319
321
324
330
330
320
301
315
334
339
337
340
349
338
335
349
348
350
356
357
353
351
347
352
361
355
332
328
353
361
351
343
335
326
316
322
324
315
313
314
324
320
311
307
309
317
319
318
313
319
323
324
320
321
313
314
322
325
324
317
297
293
316
339
338
320
312
317
314
307
312
321
323
320
319
314
317
333
330
334
345
340
326
326
332
339
351
346
340
332
317
316
329
338
336
327
322
321
321
311
310
315
321
318
316
317
311
297
288
307
309
293
288
297
323
362
432
493
503
463
400
352
336
341
340
335
314
309
313
325
332
327
312
309
313
326
329
323
316
308
307
326
339
334
322
318
328
328
324
331
340
340
331
329
334
341
352
345
339
337
344
352
353
358
363
363
369
367
359
352
356
355
355
360
363
359
344
329
322
324
322
322
334
332
321
320
318
323
327
320
314
322
326
317
315
323
325
325
324
317
320
330
335
332
329
322
314
299
305
328
343
342
323
318
322
322
326
327
325
328
331
330
329
339
343
339
339
342
340
333
331
342
348
331
322
324
328
333
326
330
333
331
319
314
314
312
315
318
321
320
322
315
301
302
304
299
284
280
301
334
374
433
477
484
456
398
342
323
329
332
328
329
321
304
296
297
310
327
341
344
329
320
318
319
320
320
324
326
330
323
321
319
330
339
326
320
330
341
345
333
332
342
344
346
338
337
356
373
370
354
356
362
360
356
357
351
344
345
354
358
347
332
321
319
329
328
330
333
330
324
318
313
309
299
299
293
314
333
329
312
297
305
316
322
328
329
326
325
324
325
318
301
317
333
338
341
327
314
316
315
316
318
323
335
339
326
309
310
334
347
354
352
345
340
328
333
347
353
351
345
338
331
328
321
325
327
331
337
332
330
326
325
318
323
325
324
320
307
313
327
338
328
307
290
285
293
304
320
367
430
476
469
440
386
350
341
335
336
335
328
322
316
306
298
305
315
328
332
326
319
328
329
319
310
316
336
346
349
341
334
331
327
332
332
330
335
341
335
322
341
368
371
360
364
368
369
368
365
367
361
353
366
379
372
351
353
364
371
362
353
355
344
345
337
328
326
334
332
326
322
319
319
327
322
317
318
312
313
325
331
332
335
327
317
322
326
331
330
333
336
337
336
331
328
330
334
332
325
326
322
325
324
307
317
330
343
344
331
332
347
360
355
350
336
331
350
363
354
336
331
328
331
336
325
316
307
317
331
339
328
324
320
313
310
308
321
321
314
304
292
282
280
289
306
352
422
488
503
470
408
348
317
313
310
310
309
321
332
325
310
297
316
330
327
319
310
303
314
329
323
308
303
316
323
325
328
331
325
321
319
313
321
329
336
332
334
335
330
345
355
353
344
340
342
348
357
356
351
356
368
364
358
353
345
335
329
324
331
338
332
321
315
307
309
308
310
320
315
311
309
316
312
306
314
327
331
320
320
325
324
322
312
296
297
316
330
334
324
305
294
306
330
332
326
314
313
317
317
318
323
339
344
337
335
329
316
315
344
357
348
332
322
331
332
329
320
300
303
315
324
322
322
309
296
305
315
318
320
318
315
305
290
276
282
294
309
327
377
438
477
482
460
408
358
321
310
323
321
311
312
316
307
309
317
318
312
304
308
313
312
313
317
319
314
314
319
324
319
319
331
333
336
337
333
331
329
331
331
335
334
335
349
358
359
353
336
347
360
356
361
360
357
352
341
356
373
362
345
327
332
338
338
322
322
321
311
310
312
320
319
309
305
318
327
326
317
314
317
328
325
322
327
317
310
322
331
331
324
318
314
316
317
321
331
330
326
327
322
321
326
341
345
351
348
335
327
329
342
343
345
341
322
304
318
336
345
340
327
313
306
302
311
322
326
319
316
309
303
297
295
289
300
300
287
276
279
305
354
410
456
482
479
439
367
323
318
326
334
324
316
314
321
320
309
308
320
326
327
330
329
326
323
323
320
319
324
330
323
319
325
332
328
333
323
316
321
340
347
353
345
340
344
358
363
355
344
344
353
362
369
377
368
366
361
345
344
347
348
346
353
354
348
330
312
312
316
314
316
323
322
322
323
324
328
320
316
319
329
337
337
331
327
328
324
321
328
332
331
322
327
323
323
335
336
330
325
316
312
319
332
340
337
322
321
337
351
350
347
346
347
343
342
350
348
339
333
324
317
315
320
338
351
342
327
325
326
321
317
312
309
322
332
333
321
309
315
309
292
285
287
299
329
375
429
476
487
459
404
352
322
327
333
328
326
324
323
330
327
325
328
320
321
331
331
325
325
323
327
330
325
334
333
325
322
332
340
341
341
343
335
337
338
332
338
351
347
344
354
359
357
356
363
363
366
359
355
351
355
366
365
361
355
352
339
328
333
330
322
325
317
307
313
319
320
320
313
307
309
311
319
333
332
321
321
319
313
315
318
325
327
322
321
318
314
314
314
305
304
322
339
346
350
342
334
328
329
330
328
324
327
331
337
346
349
341
345
350
357
351
340
339
342
346
349
350
338
338
346
351
341
325
317
317
329
328
328
325
327
326
322
329
333
331
328
319
305
295
295
301
319
367
430
479
482
464
425
380
354
343
341
334
329
323
321
319
330
337
333
326
320
319
312
309
318
322
327
336
339
338
336
348
347
339
332
339
345
341
341
341
343
342
344
345
353
355
354
353
356
352
349
358
374
367
366
363
366
370
373
364
350
347
345
346
341
333
336
328
320
320
327
330
321
312
303
307
319
329
331
329
331
327
324
320
316
323
328
324
328
329
324
315
315
318
327
333
323
322
325
331
333
324
313
315
324
335
342
343
342
332
338
348
346
332
328
339
350
348
342
342
336
321
318
329
337
326
322
323
326
325
319
320
322
325
321
316
307
307
313
320
317
296
279
275
296
337
393
452
490
493
457
393
326
306
336
354
343
323
307
310
309
315
313
306
310
318
322
320
308
308
328
330
325
323
325
320
315
318
325
329
334
336
329
322
330
345
340
335
335
328
332
342
354
352
356
357
353
355
361
374
369
357
354
355
355
342
334
329
328
324
315
322
331
325
322
324
314
304
305
324
334
330
319
319
316
316
316
319
315
304
306
312
314
317
320
327
322
327
329
327
329
320
310
320
327
326
315
319
321
314
319
324
328
323
316
326
339
349
350
349
338
331
325
326
330
322
318
320
319
311
299
300
304
304
310
321
323
310
299
298
316
325
316
309
284
271
274
289
325
369
415
454
478
452
395
346
320
317
313
314
319
318
313
306
313
318
316
310
311
308
312
315
319
317
308
309
316
320
324
326
325
331
330
331
328
325
322
323
330
338
334
334
333
337
345
351
350
341
339
350
355
360
354
355
355
353
352
348
341
334
334
334
328
317
314
323
329
318
305
305
318
325
324
315
313
317
312
323
328
326
318
304
311
322
323
325
322
323
321
334
327
311
316
329
337
337
333
322
322
324
331
330
327
325
328
323
328
331
335
338
333
325
337
349
347
349
343
329
324
334
344
349
341
334
329
322
307
313
324
323
322
320
317
313
315
322
316
316
305
313
317
311
293
276
271
295
353
416
463
477
466
420
357
319
316
322
319
315
323
323
325
324
317
319
315
310
314
315
308
313
325
330
328
323
323
320
323
331
331
321
318
323
335
341
343
339
335
323
328
342
351
352
348
357
362
360
364
362
352
351
357
354
371
375
361
347
343
348
340
331
318
300
302
321
336
341
327
310
305
303
318
337
335
321
318
322
328
325
324
314
309
310
320
327
326
314
302
310
323
321
325
332
336
332
330
326
325
321
316
316
324
330
326
327
329
315
319
325
321
328
343
336
334
340
341
339
338
350
353
345
339
336
334
330
324
321
323
322
313
303
295
304
311
319
326
326
325
326
330
324
312
305
292
285
290
313
357
408
450
483
475
424
363
328
321
321
320
324
328
320
315
319
319
317
319
321
327
321
314
322
327
327
321
310
313
328
334
332
328
320
323
330
335
339
342
334
336
336
342
351
363
367
360
347
332
345
355
365
365
358
361
366
362
348
344
352
360
358
355
349
339
334
330
320
320
317
325
333
325
319
321
320
318
307
312
330
340
343
333
315
315
333
344
340
333
330
334
337
332
325
324
331
332
327
322
324
325
332
341
341
339
340
344
350
355
350
343
343
347
355
346
353
353
353
351
351
359
348
337
342
346
345
341
335
332
327
327
330
341
347
348
342
339
336
336
327
309
297
292
293
310
351
409
471
506
504
478
415
357
331
336
340
339
325
316
323
326
320
315
329
344
350
342
329
326
321
319
321
326
328
332
336
336
328
324
333
345
351
349
347
347
350
348
344
342
344
349
351
350
354
354
354
358
367
370
363
361
351
361
367
367
362
347
323
327
337
335
328
315
308
303
309
318
320
318
321
319
325
329
331
324
313
313
320
329
326
319
317
320
324
326
319
313
316
324
321
322
335
335
330
324
323
328
327
323
322
326
330
332
334
335
336
341
341
342
348
344
342
336
328
331
342
344
338
333
333
331
324
321
304
313
326
326
318
304
306
315
318
320
320
320
314
300
282
275
284
308
354
430
473
480
463
412
361
329
327
330
327
315
315
316
311
310
318
328
327
324
317
319
311
304
309
324
336
336
326
323
323
324
320
313
324
330
340
350
347
342
338
337
340
352
356
356
356
355
352
357
360
360
357
364
358
354
362
371
370
366
352
341
328
319
323
338
340
338
321
303
297
294
311
329
334
327
322
320
316
315
325
320
312
317
325
313
319
329
320
299
309
330
341
335
324
310
309
319
327
326
320
321
322
319
311
318
317
303
319
336
337
333
326
320
324
325
330
335
336
333
328
325
327
317
316
320
326
325
325
318
317
314
318
316
307
303
306
305
306
302
299
300
301
305
291
276
278
289
297
312
345
407
452
455
432
381
339
315
313
320
317
314
311
314
312
321
323
319
316
312
305
311
314
312
309
308
315
322
325
323
321
316
325
336
337
329
325
326
325
328
334
337
339
340
343
335
339
342
348
352
354
355
353
348
351
359
365
358
358
350
337
328
326
335
335
324
319
318
321
313
316
317
308
311
312
317
309
307
320
322
322
322
322
320
322
333
328
318
312
317
317
318
316
314
319
320
317
317
323
323
321
319
319
322
325
328
323
322
321
314
316
314
323
326
331
336
340
335
333
333
343
350
345
339
331
324
320
333
336
337
331
325
317
308
311
314
321
312
309
314
311
319
327
317
308
324
326
311
284
272
287
308
346
412
470
495
472
413
357
321
311
325
341
344
337
325
318
316
318
314
318
323
327
332
326
326
326
323
328
328
327
323
322
328
336
343
343
330
328
331
352
357
351
344
345
356
357
354
348
338
345
352
361
370
369
353
347
349
359
365
360
363
362
350
342
340
334
331
329
323
320
308
306
316
315
318
325
319
325
326
319
317
316
321
325
323
326
321
318
323
332
334
328
324
321
325
326
316
324
331
328
328
326
331
326
317
314
327
333
324
329
335
340
339
340
344
345
341
336
324
332
347
356
345
331
332
337
339
346
336
320
313
331
336
333
326
321
317
316
319
320
319
317
322
315
303
297
293
284
286
313
367
436
491
505
479
419
358
324
317
324
337
334
321
307
301
315
333
338
333
324
316
311
314
322
332
327
326
326
333
317
308
323
331
335
346
347
339
327
329
331
336
339
339
341
342
348
352
348
345
345
350
363
370
359
348
356
364
354
346
349
355
351
336
326
327
327
311
300
312
325
328
315
311
307
310
320
318
321
322
325
325
320
305
296
313
328
328
326
323
319
320
328
313
315
312
315
322
326
330
336
328
311
320
335
332
330
321
320
324
323
330
336
331
319
315
330
349
347
347
330
331
335
335
332
326
322
318
311
306
310
322
306
301
309
313
315
315
317
326
321
315
305
293
282
296
330
377
437
478
485
457
402
359
342
336
337
336
331
323
313
314
317
324
327
329
329
324
314
310
317
319
326
334
339
338
336
329
321
333
346
341
324
325
339
344
337
327
325
332
350
370
370
355
352
353
350
360
368
364
360
355
352
349
356
361
360
352
329
312
322
334
342
333
325
321
321
324
313
302
308
323
331
313
305
307
305
310
300
304
317
316
313
314
324
324
308
306
315
319
311
301
306
320
325
319
308
303
316
328
320
311
312
311
314
313
316
314
319
324
318
324
338
342
343
336
320
323
342
349
345
340
335
327
326
322
312
302
294
311
332
323
318
319
322
315
313
320
327
320
310
301
286
271
272
295
321
350
385
429
464
468
433
383
332
309
318
319
320
326
333
324
312
318
330
332
326
319
316
313
317
333
333
328
326
319
317
322
335
333
321
321
329
341
346
338
341
341
336
336
337
345
350
348
342
349
361
361
363
363
366
381
381
381
365
350
342
353
348
342
335
324
317
317
327
336
335
324
318
312
308
303
324
336
332
326
324
315
304
307
319
328
330
326
317
311
324
319
319
321
319
325
329
330
327
320
313
315
315
315
314
318
318
326
330
322
319
319
315
329
339
337
333
329
329
336
340
327
329
343
345
339
327
328
343
342
332
321
323
330
327
318
307
305
313
322
320
321
310
313
330
330
307
294
292
291
297
305
322
373
432
474
487
458
401
350
323
323
327
318
305
304
311
318
320
315
321
316
318
323
323
314
302
311
328
336
324
309
308
319
334
333
326
319
322
323
329
338
331
326
343
343
340
338
334
340
357
363
360
356
348
350
361
370
357
341
338
345
352
351
352
349
344
338
328
319
317
316
315
317
324
322
308
309
325
328
324
327
326
323
326
339
335
322
322
321
324
329
336
333
327
315
313
340
351
343
347
348
349
335
321
316
328
334
342
351
348
338
345
355
357
348
347
351
350
349
357
349
341
343
349
340
328
326
330
328
333
334
334
325
320
322
326
328
326
318
310
310
324
325
314
297
295
299
307
324
380
445
491
497
472
422
359
317
308
324
335
329
311
304
315
317
322
322
316
319
314
301
319
325
325
329
317
304
292
318
348
347
333
332
321
315
318
327
340
348
333
322
319
341
361
366
362
355
351
350
345
345
354
362
365
358
352
342
344
349
351
351
346
333
327
325
313
319
329
339
329
317
310
322
324
318
312
301
306
311
312
308
318
331
327
321
316
315
311
325
338
337
328
309
309
332
335
320
317
318
321
318
312
318
332
338
332
328
328
338
343
345
342
334
334
345
344
340
343
336
325
323
327
322
312
316
317
328
333
323
310
314
311
305
311
320
325
312
310
297
283
279
304
350
401
460
482
486
460
401
350
321
321
322
326
329
321
325
318
315
320
326
328
329
325
333
328
324
324
306
315
342
346
331
327
327
326
335
345
340
333
340
338
332
326
332
349
365
360
349
338
343
353
363
364
362
364
358
356
363
356
355
351
349
350
347
339
327
327
328
320
326
331
334
325
318
317
310
311
312
313
315
324
326
328
325
323
323
330
339
333
326
323
326
332
330
323
328
332
327
317
313
313
323
336
350
354
336
325
332
345
348
347
336
340
348
339
336
351
353
342
336
340
354
346
339
341
337
331
317
316
326
329
328
324
312
307
313
320
325
326
324
317
310
291
278
276
292
338
400
454
471
464
442
386
333
313
318
326
332
329
322
318
320
314
304
310
321
322
321
323
320
317
316
320
320
322
333
327
325
315
305
328
352
348
342
336
337
334
326
329
340
347
353
351
346
351
354
348
339
356
377
382
377
364
358
361
362
360
354
340
336
339
335
321
307
311
322
326
324
322
320
315
317
323
327
328
331
334
324
318
296
299
310
326
327
324
319
320
324
333
339
332
318
322
329
333
336
327
320
318
319
315
320
328
333
336
330
325
321
324
329
350
362
356
335
319
328
331
331
326
323
322
318
300
300
295
298
310
321
323
318
317
319
326
325
312
302
290
278
284
301
334
394
465
491
477
433
359
309
306
336
348
344
332
315
307
316
336
333
326
320
321
317
313
314
320
328
317
313
324
324
322
327
336
333
328
330
333
331
337
343
346
340
329
336
348
350
363
362
351
336
337
359
385
381
367
353
351
361
360
356
357
362
352
337
329
324
332
338
339
336
326
306
309
320
322
322
328
321
321
323
325
322
324
336
338
330
324
338
342
331
325
328
334
337
325
323
331
331
327
327
335
338
324
325
347
351
359
365
358
345
337
344
343
338
341
341
342
340
332
316
311
302
314
338
340
329
317
317
327
332
325
313
311
320
315
308
287
281
287
290
309
363
437
493
500
465
410
367
336
325
326
326
317
311
313
326
326
313
311
308
308
299
296
324
338
319
299
304
310
327
337
339
338
330
326
325
327
320
323
333
335
330
327
324
338
350
350
350
353
365
373
358
351
364
365
367
372
363
354
344
329
337
347
340
335
338
340
332
330
339
343
341
331
317
314
319
320
297
293
316
331
326
318
323
324
326
332
328
332
322
321
327
326
318
315
302
302
302
303
319
326
331
327
320
311
318
331
329
321
309
304
308
320
321
306
290
281
291
299
299
283
273
276
272
271
280
279
276
283
281
273
270
260
245
242
245
263
300
349
409
442
439
408
351
301
292
303
294
277
272
280
279
273
270
281
281
280
271
263
260
259
269
276
274
268
268
276
284
288
286
279
283
293
308
304
294
292
285
280
286
308
322
325
322
315
303
302
314
333
346
345
340
328
330
340
337
334
319
312
323
333
326
309
300
306
310
309
304
309
304
305
310
314
316
318
311
307
309
330
336
329
324
325
329
328
324
321
322
329
327
322
319
315
311
318
325
341
342
337
337
346
354
358
351
337
340
349
350
337
328
332
331
318
310
316
322
319
313
305
323
333
333
332
328
314
304
311
321
317
306
294
263
260
280
324
382
447
480
482
450
391
347
322
320
336
344
341
334
323
321
326
336
333
318
306
302
316
322
329
331
336
344
350
340
329
331
338
344
346
344
345
351
351
348
343
328
326
339
351
346
348
365
372
371
370
371
374
373
374
373
377
370
358
354
344
350
354
348
339
331
331
343
344
335
323
320
328
336
332
329
321
323
333
343
342
336
327
326
328
329
331
327
322
340
349
337
333
332
329
333
340
339
341
336
331
343
354
351
342
347
345
339
343
357
369
354
337
332
331
336
343
345
343
336
327
318
320
327
323
312
323
330
322
323
328
321
317
314
306
285
272
286
311
345
392
448
480
480
456
410
361
331
324
327
319
314
324
328
324
316
314
321
319
320
315
320
329
334
336
333
339
331
329
340
340
338
327
318
309
318
331
341
344
349
340
333
334
343
349
359
362
368
361
357
361
367
371
368
362
355
354
342
343
348
343
336
325
315
330
336
340
329
315
317
322
337
337
324
322
319
325
330
318
313
312
322
326
323
318
315
326
338
336
328
322
318
330
334
333
333
335
332
324
324
331
326
329
341
344
332
328
344
359
361
357
340
327
335
344
347
349
344
332
320
316
316
301
308
326
330
326
320
314
311
315
316
311
306
299
286
287
299
321
378
461
504
496
464
404
344
314
311
319
322
322
317
313
317
309
310
315
334
342
333
325
312
315
324
327
329
324
328
328
321
319
325
327
332
335
337
342
346
338
346
349
350
348
353
357
349
353
352
348
347
359
371
365
351
342
347
359
368
362
345
338
337
325
316
317
329
327
319
316
316
309
320
317
317
321
315
318
326
327
318
310
315
318
329
327
326
319
323
331
333
316
307
302
313
337
354
350
341
328
331
332
347
351
347
345
342
341
337
330
331
329
323
318
331
332
326
323
326
326
323
325
317
318
315
317
319
319
316
310
294
280
283
276
285
312
358
428
482
498
480
431
366
333
318
319
333
333
329
324
314
303
305
307
312
309
309
307
307
316
317
328
335
326
310
314
330
338
339
330
316
319
325
331
325
324
329
343
354
345
338
353
360
364
363
366
358
350
354
358
363
362
359
351
339
332
329
339
343
345
335
326
326
329
321
322
323
314
309
314
313
321
327
331
329
323
324
329
318
315
323
325
329
331
330
332
328
323
321
321
329
334
328
317
310
330
342
342
338
332
332
333
338
339
332
333
333
333
329
334
345
333
322
325
326
325
312
304
302
303
309
310
302
300
300
305
313
321
320
307
284
270
271
279
299
346
413
466
473
448
398
343
312
317
319
320
318
314
312
310
312
314
313
312
309
303
304
309
311
311
301
298
305
326
335
329
328
325
322
313
318
325
332
337
321
320
330
349
348
344
332
342
350
358
358
355
365
366
366
368
368
359
353
353
351
349
337
325
337
346
336
321
310
310
324
332
328
322
318
321
322
318
323
326
331
336
324
314
317
330
336
333
333
329
323
321
320
322
331
333
335
336
331
321
315
318
319
326
338
339
348
343
327
331
346
362
357
350
341
342
330
331
344
351
344
334
335
335
340
331
328
323
333
336
318
302
302
309
314
323
333
336
324
301
282
282
289
304
319
370
436
486
490
451
390
337
316
332
338
334
335
340
335
324
311
307
314
331
344
330
317
320
335
334
322
321
336
343
341
334
334
335
339
343
343
343
348
348
342
326
329
336
360
374
378
377
366
360
368
374
374
373
364
365
367
373
367
352
345
339
337
344
351
359
354
343
334
328
326
326
331
319
305
304
319
337
345
326
317
322
331
336
335
333
339
335
331
323
327
335
334
336
331
319
314
326
326
335
339
330
317
316
320
323
311
319
340
348
346
330
329
345
348
344
338
326
334
332
330
326
317
330
338
328
322
319
315
307
319
328
330
320
308
305
306
320
321
316
314
308
304
285
264
269
292
322
370
440
483
487
436
379
340
321
322
323
321
321
311
312
309
305
304
306
317
319
309
304
301
312
316
323
322
316
313
322
327
321
303
312
325
332
335
334
326
318
326
332
342
350
347
339
337
340
343
356
356
356
355
355
349
343
331
333
340
349
356
362
349
328
320
321
319
323
321
316
312
303
303
312
313
313
318
318
313
312
313
317
313
304
304
310
316
316
307
318
328
329
324
312
302
305
317
328
313
308
313
311
312
311
317
326
330
326
316
320
326
329
332
328
328
330
334
334
335
335
328
317
324
325
326
325
316
317
311
315
315
309
303
296
303
317
325
322
319
309
297
289
283
275
273
295
327
367
419
461
468
459
419
372
335
323
326
324
315
310
312
303
302
302
297
305
313
320
317
316
318
311
311
313
318
321
320
322
322
323
325
314
321
325
331
338
337
332
340
340
336
342
344
349
351
358
360
358
361
357
351
352
348
352
364
369
357
344
335
338
342
346
331
328
322
321
323
318
323
327
328
331
327
314
310
314
319
321
327
329
323
328
331
321
308
312
315
325
332
334
335
329
325
326
329
330
328
337
336
321
307
315
326
330
331
337
345
351
342
338
332
323
329
332
335
335
338
338
337
335
323
314
308
315
322
329
323
310
302
305
310
312
306
298
309
311
309
302
299
306
300
290
292
307
339
398
452
475
467
417
356
317
307
320
344
340
318
313
316
320
317
302
300
308
319
326
322
315
318
310
311
326
331
332
333
325
322
324
324
325
327
330
329
336
340
337
347
347
343
344
335
344
356
352
363
371
362
354
358
359
360
360
350
337
344
353
342
325
322
329
334
329
325
310
306
315
315
312
325
323
315
320
316
319
326
324
320
323
313
315
320
321
322
318
322
327
333
333
322
315
322
332
336
323
315
316
328
336
334
318
322
330
335
334
328
322
322
321
321
333
348
352
342
336
339
338
329
333
345
349
351
355
356
348
338
342
344
336
321
315
325
343
330
316
317
319
318
320
326
328
327
318
322
324
313
312
302
285
281
312
354
402
442
467
462
421
373
337
323
332
337
331
323
321
314
312
314
321
324
330
329
321
315
326
325
319
325
329
332
329
332
335
334
336
335
332
320
325
340
345
351
350
342
352
358
360
358
358
361
357
351
356
360
364
371
369
357
361
361
360
359
352
341
344
348
342
333
327
314
303
301
310
311
314
317
316
307
307
307
311
316
311
297
310
328
326
312
308
320
319
320
328
322
319
321
325
325
317
304
303
308
313
326
332
326
314
315
328
334
319
312
323
336
325
315
313
314
327
329
325
325
319
321
334
333
326
327
328
328
337
346
359
355
349
345
331
331
334
334
326
330
336
333
302
300
318
332
334
328
323
313
315
322
322
325
326
313
285
270
285
309
329
370
432
478
492
463
402
341
317
322
315
322
313
307
319
335
334
323
314
313
310
313
312
310
305
315
316
314
314
329
340
338
325
325
337
334
321
326
327
332
328
334
334
320
315
340
356
360
356
345
355
361
360
358
356
358
354
354
357
348
339
335
340
343
338
330
319
320
329
327
321
317
307
302
302
310
325
313
303
306
311
313
305
303
312
319
321
315
318
324
314
314
318
315
315
318
320
330
321
305
311
311
308
319
322
318
325
326
326
325
327
333
328
325
322
327
321
324
343
352
346
332
324
324
333
338
338
337
332
340
328
310
316
327
330
320
313
304
298
317
335
328
310
301
307
309
297
289
300
298
300
309
326
372
451
496
501
459
398
345
314
317
320
303
295
305
322
326
318
320
323
318
309
310
318
316
312
313
314
316
324
325
318
311
319
320
320
327
335
341
336
331
317
320
334
344
347
338
340
348
352
343
329
328
359
377
378
367
357
347
345
346
341
334
336
328
318
323
327
316
312
315
314
312
307
307
319
316
307
316
313
311
310
307
312
317
317
325
323
304
304
319
324
328
326
325
321
315
311
310
312
326
326
326
316
310
321
322
311
312
320
332
338
325
312
313
327
342
355
357
345
337
336
333
334
339
344
343
337
327
312
315
327
327
331
326
322
330
327
318
313
308
317
319
315
309
304
287
284
288
304
324
367
431
483
493
466
405
351
322
318
325
322
313
308
309
314
315
314
325
329
334
323
315
314
318
320
317
326
328
319
310
314
316
317
318
329
339
338
328
329
334
343
345
340
336
336
337
346
348
352
354
351
352
349
349
359
369
367
360
352
353
352
345
343
332
329
332
330
325
309
304
314
329
332
324
320
321
324
327
329
324
315
314
322
334
335
325
312
318
326
331
321
321
331
342
341
329
325
319
329
334
336
336
335
317
304
317
324
329
330
334
334
328
327
318
317
331
337
337
333
324
333
346
345
341
332
340
348
354
348
337
338
336
331
330
336
341
333
322
318
321
320
320
328
334
318
300
310
329
339
325
300
282
287
293
304
324
356
407
455
475
465
417
361
325
327
332
334
326
327
323
317
316
318
314
313
313
330
342
339
334
323
310
314
331
343
353
347
335
324
316
321
334
345
352
346
344
348
357
368
361
360
363
365
358
348
363
380
380
374
374
375
374
373
368
371
378
372
363
354
349
345
341
325
329
329
330
333
328
332
334
332
330
330
313
311
325
335
341
337
333
328
331
332
332
328
329
321
321
325
339
338
341
336
327
325
327
326
328
324
336
343
345
341
335
320
303
311
336
347
343
337
332
324
326
344
353
362
355
345
341
347
345
336
330
334
337
346
340
326
316
324
315
309
307
322
323
317
306
307
300
307
319
320
309
315
310
287
276
288
315
367
424
467
483
459
413
355
314
311
312
322
319
315
318
315
312
315
314
307
304
319
325
327
322
309
309
313
311
315
326
328
332
333
329
324
318
320
324
332
337
332
335
348
354
348
336
343
360
367
358
357
357
362
364
365
364
367
364
352
355
360
351
339
328
341
340
324
321
319
328
333
336
329
322
317
313
327
335
330
331
334
330
325
314
319
339
343
333
329
320
317
329
345
353
346
335
320
320
326
329
335
331
327
324
320
319
331
338
335
332
324
334
347
347
348
349
344
335
338
352
351
343
338
333
331
329
341
348
328
315
325
327
325
321
305
298
320
335
325
318
322
323
326
320
301
283
275
300
333
373
434
485
488
454
402
350
333
337
329
312
306
319
327
323
310
308
316
306
304
318
330
331
321
307
310
322
323
319
324
324
324
337
338
324
319
326
342
349
332
326
336
345
348
348
355
360
359
360
359
352
358
362
354
357
367
365
361
360
359
348
334
341
345
336
337
333
323
317
317
324
327
319
316
321
319
323
316
313
318
323
327
324
327
327
323
318
317
333
339
327
325
332
331
316
308
309
317
334
344
338
324
311
323
321
321
323
333
344
341
330
320
319
334
345
341
341
352
361
355
340
341
342
338
335
329
325
325
325
315
311
303
318
324
321
325
312
303
314
324
323
319
299
277
274
285
317
359
410
455
471
459
425
368
328
323
328
324
317
304
292
311
325
320
313
311
316
326
317
312
294
298
321
330
323
330
337
329
323
320
324
333
331
325
316
330
341
349
339
331
329
352
363
361
346
341
354
363
366
359
348
343
355
374
372
353
345
350
343
339
347
345
336
320
316
322
319
310
301
300
308
320
321
304
299
299
306
327
330
318
308
323
330
326
306
306
313
326
325
316
319
325
317
311
312
311
319
333
334
331
326
319
313
311
319
322
332
329
320
310
320
329
334
336
343
340
332
336
339
339
340
346
339
325
320
323
320
318
340
342
326
309
307
315
319
318
315
308
304
307
303
304
304
304
300
296
294
284
295
319
356
407
456
469
451
409
362
330
316
317
303
302
311
319
322
328
316
304
308
310
309
318
320
316
310
313
306
304
312
330
340
333
326
323
324
325
322
331
341
336
325
332
341
340
331
339
353
351
344
353
357
362
355
354
361
372
362
343
359
366
362
355
341
337
333
321
303
303
320
329
331
326
317
310
312
320
311
316
326
327
319
319
323
327
326
308
285
296
330
343
333
324
313
301
305
322
334
337
338
329
314
313
316
327
327
321
320
330
325
326
333
335
331
323
323
331
350
357
351
347
342
342
335
327
323
320
328
332
328
326
320
310
312
314
319
322
319
315
314
313
309
314
319
305
294
288
290
294
319
377
445
487
495
461
399
342
310
313
308
313
319
324
322
321
323
331
332
326
311
293
297
323
326
318
318
322
320
321
328
320
312
317
328
333
333
329
327
332
336
343
340
332
317
321
346
352
358
362
354
347
346
351
362
372
374
372
363
339
330
339
338
343
344
331
330
327
310
304
315
314
315
314
321
323
318
311
324
328
324
330
324
314
319
320
327
324
320
329
331
327
328
318
320
332
325
328
333
330
331
332
327
329
336
338
340
336
322
322
338
336
345
356
351
337
336
354
362
350
342
335
335
333
341
330
315
321
328
326
325
315
308
320
335
337
329
319
319
311
315
313
304
295
298
321
359
416
467
493
487
439
379
341
328
328
335
328
323
314
314
328
328
320
310
305
317
322
323
326
322
320
330
331
331
334
342
330
327
328
338
345
339
325
328
329
343
351
346
342
341
355
360
349
354
366
366
352
355
367
371
371
368
361
352
350
352
355
347
342
328
324
334
337
332
319
319
330
336
320
307
305
314
329
335
332
321
314
321
332
322
321
326
327
322
327
323
321
318
315
315
329
331
336
338
336
325
313
311
324
336
339
349
348
337
320
312
334
352
360
355
345
335
335
327
324
328
336
336
325
316
309
312
311
321
319
309
309
311
325
329
328
312
282
276
294
304
319
339
388
451
479
472
438
381
332
321
335
338
332
324
315
304
312
321
330
324
317
315
320
310
303
313
323
331
328
321
320
321
333
338
334
338
331
333
338
326
320
333
343
341
340
334
355
364
362
355
336
340
364
372
361
362
356
353
366
368
362
350
341
335
329
321
326
336
337
316
309
306
311
318
326
327
322
311
314
320
320
318
318
320
325
327
328
326
323
319
329
328
331
334
332
320
312
314
308
324
333
329
316
318
330
339
335
329
325
327
331
331
344
344
345
342
339
332
341
353
347
327
320
327
329
326
329
320
313
320
319
312
306
313
311
309
316
317
308
300
307
319
309
287
271
270
293
325
379
438
464
467
432
381
331
309
305
315
323
313
315
317
320
320
319
316
309
311
320
317
309
312
310
323
328
322
315
311
318
330
327
331
332
319
314
321
335
338
319
323
347
353
352
354
352
354
366
373
370
367
364
358
348
